TIME[S],pos_X,pos_Y,pos_Z,vel_X,vel_Y,vel_Z,x_cartesian,y_cartesian,z_cartesian
0.0,-1387897.52489378,-5268929.40314374,3306577.78958198,-0.024384810456303,0.0581944954978505,0.013195331002003,0.0,0.0,1118.74380639102
1.0,-1387897.51020182,-5268929.39813988,3306577.78415043,-0.0223816786699237,0.0506036995833791,0.00707304990651002,0.000191434286534786,0.0151252187788486,1118.7336524874
2.0000102519989014,-1387897.50834401,-5268929.38309468,3306577.77440117,-0.0170525802134444,0.0478699903232249,0.00842607871566857,0.000732406042516232,0.0127442572265863,1118.71575220209
3.0000102519989014,-1387897.51016397,-5268929.38717536,3306577.77573093,-0.0174964906986971,0.0368419076780181,0.00759637388190808,0.00188314076513052,0.0119016282260418,1118.72021187842
4.000020265579224,-1387897.5093597,-5268929.38959987,3306577.77946082,-0.012726560497543,0.0423543408892629,0.00575832963331068,-0.000195090658962727,0.0135334953665733,1118.72397614457
5.000020265579224,-1387897.50950584,-5268929.38847967,3306577.77308233,-0.0169447472437881,0.0435821747433208,0.00600638520004749,0.0047143017873168,0.0130345039069653,1118.71977273002
6.000030279159546,-1387897.51522789,-5268929.39006231,3306577.78153702,-0.0175214590970926,0.0321398264682327,0.00793380621706077,-0.000962402671575546,0.00703462027013302,1118.72671344131
7.000030279159546,-1387897.50845289,-5268929.36005391,3306577.76186992,-0.00824635684673498,0.0354733133532025,0.00225841401753024,-9.94615256786346e-5,0.00575713813304901,1118.69022698514
8.000040292739868,-1387897.67777361,-5268929.91992316,3306578.10887869,-0.538925609685083,-1.74258458928667,1.06887125490596,0.00649954564869404,-0.0189480744302273,1119.36996839382
9.000040292739868,-1387898.78133164,-5268933.51115302,3306580.24411656,-1.77422185864002,-5.52101648769062,3.28532484236715,0.128591112792492,-0.19717026501894,1123.68689777795
10.00005030632019,-1387901.24058258,-5268940.82047184,3306584.48519073,-3.24057611447942,-9.08695063745388,5.20083572258333,0.494850906543434,-0.80097365938127,1132.46528194565
11.00005030632019,-1387905.26918261,-5268951.68258016,3306590.57773322,-4.95467447074294,-12.6469637714027,7.03131805829633,1.26801170781255,-2.12123245373368,1145.48302827869
12.000060319900513,-1387911.04344254,-5268966.14368523,3306598.4994168,-6.73743918422396,-16.2440619779653,8.86184446508393,2.51362643390894,-4.34357152692974,1162.80514689256
13.000060319900513,-1387918.57380705,-5268984.23518102,3306608.27405253,-8.4946085434247,-19.8971770850297,10.7551392645396,4.22846403345466,-7.47043830901384,1184.47221966181
14.000070333480835,-1387927.7957301,-5269005.99662402,3306619.94206607,-10.1588208066933,-23.5987938772352,12.7059699884621,6.38927668891847,-11.4170349743217,1210.52386625204
15.000070333480835,-1387938.61871639,-5269031.497677,3306633.59410831,-11.7350734425248,-27.3605084277284,14.7358834868681,8.94155858270824,-16.0602458771318,1241.0450012954
16.000080108642578,-1387950.9539414,-5269060.78440807,3306649.33307922,-13.163352263211,-31.1560907888263,16.8855284659199,11.8087194515392,-21.2858728691936,1276.10775241535
17.000080108642578,-1387964.66946324,-5269093.86085782,3306667.36487275,-14.4343471011712,-34.9282034793443,19.2599396155083,14.7993609663099,-26.9434755966067,1315.79354688898
18.000080108642578,-1387979.62093603,-5269130.65396222,3306687.90610936,-15.5752561269258,-38.6391574820946,21.871238165911,17.6726074088365,-32.8915573302656,1360.1229330739
19.0000901222229,-1387995.66609718,-5269171.12315689,3306711.13814801,-16.6275214186022,-42.3264606685403,24.6487248363438,20.2343041803688,-38.9812988191843,1409.12548588496
20.000100135803223,-1388012.74088483,-5269215.30513649,3306737.20608801,-17.5511640506029,-46.0508748191664,27.5046490014994,22.3703775070608,-45.1293059289455,1462.89286733326
21.000100135803223,-1388030.67296109,-5269263.19965685,3306766.19418457,-18.3304150836162,-49.799620786136,30.5032085393238,23.985929007642,-51.1407441757619,1521.43105704244
22.000100135803223,-1388049.27088287,-5269314.77144674,3306798.24875711,-18.9276395867749,-53.540808888467,33.6669669438175,24.9129279972985,-56.8096157964319,1584.74511573184
23.000110149383545,-1388068.49163193,-5269370.15947561,3306833.60977241,-19.4161790299637,-57.2926865676696,36.9306200307024,25.0103160822764,-62.0458744447678,1653.06505412981
24.000110149383545,-1388088.16223938,-5269429.28584606,3306872.21516413,-19.8544113986729,-61.1258865970906,40.1761035066639,24.2692432971671,-66.6771278642118,1726.25660663936
25.000120162963867,-1388108.21002973,-5269492.29909063,3306914.0793915,-20.1570380301046,-65.0755013538343,43.4322977487255,22.742275624536,-70.576958315447,1804.43423843477
26.000120162963867,-1388128.47653989,-5269559.33954871,3306959.22367157,-20.2664548978785,-69.1518783563477,46.6992130616459,20.4607616243884,-73.5243878662586,1887.6904655518
27.00013017654419,-1388148.8027711,-5269630.46786443,3307007.66447193,-20.2995209211352,-73.2577104765308,50.0782053627866,17.4200707096606,-75.3215873241425,1976.04933997989
28.00013017654419,-1388169.12199163,-5269705.63664468,3307059.59276053,-20.2955250742248,-77.2377245233426,53.6640752046548,13.4244518075138,-75.9072580132633,2069.55622448307
29.00014019012451,-1388189.43518338,-5269784.73464842,3307115.19000401,-20.3189117778174,-81.1316389849367,57.4741717475365,8.26321490574628,-75.315696272999,2168.21351730358
30.00014019012451,-1388209.86069536,-5269867.74813192,3307174.62672381,-20.5030470615609,-85.0154161922491,61.3638919980519,1.79944329801947,-73.6848724149168,2272.12409944553
31.000150203704834,-1388230.57683054,-5269954.64582306,3307237.88826918,-20.9434596403386,-88.9381880847143,65.1896853348059,-5.94639072194695,-71.2257651146501,2381.2933512684
32.000150203704834,-1388251.86992937,-5270045.50281605,3307304.98054717,-21.6348276862435,-92.8843433172507,69.0185636321457,-14.9037634376436,-68.2398200016469,2495.84877874795
33.000160217285156,-1388273.93563113,-5270140.29894046,3307375.88527946,-22.5357650125524,-96.8407721431788,72.8118376746628,-25.0412376597524,-64.9542849622667,2615.80683410633
34.000160217285156,-1388297.03316332,-5270239.10220164,3307450.52343558,-23.7058185850149,-100.898276595401,76.5111783421062,-36.2228403361514,-61.6420278921723,2741.23919265252
35.00017023086548,-1388321.41785779,-5270342.03891405,3307528.78268787,-25.0723707142357,-105.086562385732,80.0336331008162,-48.2554250992835,-58.5541260931641,2872.24760918971
36.00017023086548,-1388347.18337306,-5270449.21776105,3307610.50596311,-26.5336648146958,-109.405315364307,83.4596197188207,-60.9378191623837,-55.7640970163047,3008.86084011197
37.00017023086548,-1388374.45002542,-5270560.75746087,3307695.6320441,-27.9959323614407,-113.809254112445,86.8624381230967,-74.142215449363,-53.3726016785949,3151.17147250939
38.0001802444458,-1388403.13325756,-5270676.71732732,3307784.17775176,-29.3834252529965,-118.253039781989,90.3018411280351,-87.8643431812525,-51.2663582395762,3299.21885643899
39.0001802444458,-1388433.202546,-5270797.15823041,3307876.18738526,-30.7564032968464,-122.765621339109,93.7652239162666,-102.115489343181,-49.3927175067365,3453.06965152733
40.00019025802612,-1388464.62402863,-5270922.14334801,3307971.64819945,-32.1182488943243,-127.358997813617,97.2178767963332,-116.857481410727,-47.6945721860975,3612.76210293546
41.00019025802612,-1388497.40426117,-5271051.75524137,3308070.54173677,-33.4469896101735,-132.045776193361,100.641359944303,-132.032209597528,-46.154739247635,3778.35631740652
42.000200271606445,-1388531.54852698,-5271186.12392357,3308172.81577709,-34.8217614346419,-136.86252587009,103.941862028374,-147.529097799212,-44.740467723459,3949.93383498397
43.000200271606445,-1388567.04502352,-5271325.39989477,3308278.30045697,-36.1536560383784,-141.874147361694,107.079852545465,-163.129057750106,-43.3935943152755,4127.52837415226
44.00021028518677,-1388603.81675757,-5271469.86198916,3308386.81264618,-37.4052013764814,-147.207829215363,109.937951467694,-178.545957094058,-41.944055845961,4311.25866315328
45.00021028518677,-1388641.90381154,-5271619.73736746,3308498.01923215,-38.7858014264096,-152.747013267527,112.484785594354,-193.376014659181,-40.3695334885269,4501.14838987123
46.00022029876709,-1388681.51433621,-5271775.17850073,3308611.71708846,-40.4041048562787,-158.264490353604,115.001761547629,-207.341789759696,-38.8599248863757,4697.26353388932
47.00022029876709,-1388722.61877527,-5271935.9182598,3308728.01599145,-41.7070545329051,-163.205884573271,117.673264427137,-220.674917755648,-37.461357133463,4899.43377934303
48.00023031234741,-1388764.7733202,-5272101.25347464,3308847.07430879,-42.5420850672128,-167.456804200295,120.527030563764,-233.921815350652,-35.8815584331751,5107.06335115433
49.00023031234741,-1388807.64799105,-5272270.54825061,3308968.92751899,-43.1303322580166,-171.183275909537,123.155857158543,-247.475110722706,-33.9369163326919,5319.57312204782
50.000240087509155,-1388851.09598668,-5272443.37860231,3309093.15116281,-43.7404515986052,-174.504763944028,125.28424508348,-261.204121070914,-31.5877820402384,5536.36040423531
51.000240087509155,-1388895.10276661,-5272619.36111975,3309219.32560186,-44.2179774729742,-177.452149109757,127.116755348109,-274.944499655627,-28.9319087769836,5756.8873537071
52.00025010108948,-1388939.56469082,-5272797.97465019,3309347.23953692,-44.6792543141117,-179.790004065857,128.754073064129,-288.790671864524,-26.0073490068316,5980.5909496434
53.00025010108948,-1388984.55424338,-5272978.82277506,3309476.79643852,-45.3299383278981,-181.967303073666,130.425986745599,-302.849296129309,-23.0140533279628,6207.10918589961
54.0002601146698,-1389030.24949388,-5273161.91995028,3309607.95344415,-46.0170685983609,-184.301731417631,131.91053186926,-317.052970194258,-20.1489556133747,6436.47055116482
55.0002601146698,-1389076.54835989,-5273347.46307003,3309740.47567748,-46.4664917269535,-186.876954741427,133.204592644566,-331.115873992443,-17.2380854859948,6668.69371860102
56.0002601146698,-1389123.11858003,-5273535.637207,3309874.25590637,-46.6951743365127,-189.595451182712,134.548069448882,-344.897542698309,-13.8509223293513,6903.80369182024
57.00027012825012,-1389169.93857534,-5273726.52253828,3310009.56812597,-46.8850848243982,-192.15642433895,136.182745753989,-358.594621194527,-9.93927561491728,7142.00421275198
58.00027012825012,-1389217.05361372,-5273919.90494371,3310146.49892169,-47.3743870622715,-194.744570959414,137.786156435458,-372.382363555022,-5.6180826574564,7383.17305809818
59.000280141830444,-1389264.81275122,-5274115.98835178,3310284.97836018,-48.2183306816444,-197.484649314449,139.331516432473,-386.052753892727,-1.22107972949743,7627.5185324084
60.000280141830444,-1389313.44518646,-5274314.71604575,3310425.21355818,-49.029540227529,-199.997037004651,141.353403451298,-399.780790402554,2.97589107789099,7875.15112162195
61.00029015541077,-1389362.85794194,-5274515.95865486,3310567.63100756,-49.7926149749502,-202.55277087028,143.641523795787,-414.007672962733,7.03938827104867,8126.16492236871
62.00029015541077,-1389412.96049009,-5274719.83672844,3310712.2787746,-50.4334404714755,-205.386465191676,145.77779236082,-428.725899410434,11.1075639147311,8380.66481851321
63.00030016899109,-1389463.68032253,-5274926.71288718,3310858.99494243,-50.9899805585599,-208.506418973069,147.788523350916,-443.625030879863,15.3702248390764,8638.85077655874
64.00030016899109,-1389514.89599189,-5275136.8096754,3311007.68246792,-51.4555832474811,-211.790697456865,149.732585563813,-458.526700209826,20.0307493507862,8900.82996926364
65.00031018257141,-1389566.53446017,-5275350.27088908,3311158.26233193,-51.8183815131416,-215.292343725008,151.502942938892,-473.301020266488,25.2143688611686,9166.66436327901
66.00031018257141,-1389618.63063431,-5275567.30930884,3311310.65168116,-52.3951717956989,-218.892271385136,153.363435034781,-487.766044761986,30.9448898974806,9436.4944663737
67.00031995773315,-1389671.47176886,-5275788.00187503,3311464.88058978,-53.328081937295,-222.600235459871,155.288344803078,-501.871001332998,36.9206750951707,9710.46203384083
68.00031995773315,-1389725.31385909,-5276012.5220072,3311621.02635024,-54.3594477782676,-226.652821168107,157.089877645269,-515.561219962314,42.904143081978,9988.80626855418
69.00033020973206,-1389780.167658,-5276241.37441582,3311778.90922356,-55.2614056653216,-231.247342683172,158.694699825785,-528.42906980589,49.0332793407142,10271.8534690049
70.00033020973206,-1389835.86429031,-5276474.98382995,3311938.35704604,-56.1573433746766,-236.028979084145,160.402280057065,-540.137223814614,55.625112073496,10559.8286319114
71.00034022331238,-1389892.5785993,-5276713.20070006,3312099.88831508,-57.2447872473872,-240.412906703857,162.915568654158,-551.180136700161,62.4376296829432,10852.9152327208
72.00034022331238,-1389950.1882386,-5276955.55628366,3312264.44453766,-57.8644797100503,-244.437376093383,166.434926858717,-562.612241746858,69.4695195965469,11151.1876680292
73.0003502368927,-1390008.1485228,-5277202.0788986,3312432.81119301,-57.9766730541512,-248.744645735331,170.461443398992,-575.161391798407,77.3442090842873,11454.9583189031
74.0003502368927,-1390066.34175601,-5277452.90638741,3312605.11995532,-58.528772670115,-252.998797083576,174.234182742067,-588.886236502789,86.2354531977326,11764.3838383919
75.0003502368927,-1390125.43575137,-5277707.95168559,3312780.95821749,-59.7135345751559,-257.250031033977,177.467559883593,-603.390028569847,95.3631807956845,12079.3235775568
76.00036025047302,-1390185.81314309,-5277967.3611413,3312959.89220124,-61.0077374613283,-261.65225503268,180.509721224584,-618.17875926476,104.338853493333,12399.7567528822
77.00036025047302,-1390247.3958599,-5278231.20863841,3313141.79431257,-62.0914451405373,-266.187183202492,183.383857136628,-633.116790902801,113.272581445053,12725.6612363355
78.00037026405334,-1390310.00971795,-5278499.7078333,3313326.45915937,-63.1508489201656,-270.941742371052,186.00461268331,-647.944828907959,122.424516471103,13057.0691464338
79.00037026405334,-1390373.93307875,-5278772.87094905,3313513.83388599,-64.8589509030846,-275.432809255354,188.949171640837,-662.574930946343,131.484006023034,13394.0237686895
80.00038027763367,-1390439.97059562,-5279050.29305397,3313704.42041957,-67.1624272473175,-279.491273393094,192.370787754734,-677.531867417507,139.422359405085,13736.6260088282
81.00038027763367,-1390508.30444809,-5279331.97661483,3313898.24997368,-69.5562616345385,-284.148239475191,195.229204104468,-692.81691227667,146.034832529724,14084.9337673485
82.00039029121399,-1390579.16141845,-5279618.69654536,3314094.49524777,-72.2744551582486,-289.443606494643,197.269999576428,-707.306500023231,151.296020330861,14439.2077145195
83.00039029121399,-1390652.96495343,-5279910.7102564,3314292.71145144,-75.3099283809635,-294.672025013704,199.367925756175,-720.436682036147,154.804736329243,14799.5220236816
84.00040030479431,-1390729.80549834,-5280207.84617328,3314493.33485323,-78.3870825727274,-299.662506646716,202.073174685445,-732.653668823652,156.408187579364,15165.9809254874
85.00040030479431,-1390809.65327626,-5280509.85739967,3314696.99691481,-81.3246753238128,-304.450840586384,205.450587971432,-744.623578943312,156.066908909008,15538.7015022673
86.00041007995605,-1390892.26288541,-5280816.62900859,3314904.23622676,-83.6546082401888,-309.371661391313,209.201358866872,-756.895556120202,154.023994002491,15917.8147958806
87.00041007995605,-1390976.76908583,-5281128.7080992,3315115.25292048,-85.2703639528461,-314.895438766303,213.004104830666,-769.480384532362,151.418636258692,16303.688527436
88.00041007995605,-1391062.64143761,-5281446.57969919,3315329.92597108,-86.5253588025223,-320.985139989479,216.497910186922,-782.101956894621,148.993569450453,16696.5453508338
89.00042009353638,-1391149.99869418,-5281770.65047797,3315547.98721312,-88.2667403730658,-327.358039660251,219.70909631237,-794.312430870719,146.735634237528,17096.6081366055
90.0004301071167,-1391239.37871405,-5282101.09793314,3315769.41552719,-90.4911549160798,-333.73703647391,223.150529886938,-805.934122389182,144.090766789392,17504.1297547622
91.0004301071167,-1391331.07558654,-5282438.08748499,3315994.25770036,-92.8419161253545,-340.379007455983,226.678733468257,-816.885451097973,140.776445213705,17919.3352539195
92.0004301071167,-1391424.933348,-5282781.82938738,3316222.76833682,-94.8620763505929,-347.212459883549,230.589136305788,-827.298877479509,137.03120421432,18342.4965945287
93.00044012069702,-1391520.81329305,-5283132.34098767,3316455.48198599,-96.8603304337139,-353.91922456373,235.048316668062,-837.639673094265,133.016745369881,18773.8752999473
94.00044012069702,-1391618.76176594,-5283489.6193427,3316692.77964634,-98.9736027066459,-360.817346937822,239.74742452758,-848.227886210196,128.679994424805,19213.6767337956
95.00045013427734,-1391718.73366453,-5283853.91020023,3316934.86944101,-100.980154328448,-367.969388075019,244.580916200164,-859.12379032746,124.144896460697,19662.2022193782
96.00045013427734,-1391820.71099548,-5284225.47730626,3317181.92707746,-102.988458511253,-375.311694464688,249.729970739719,-870.347440418787,119.510140541941,20119.7570393411
97.00046014785767,-1391924.75748654,-5284604.44793925,3317434.22768217,-105.186947399331,-382.856857547607,255.045447145574,-882.061086190864,114.741709165275,20586.6030517425
98.00046014785767,-1392031.03676708,-5284991.07661675,3317691.97354901,-107.363319117672,-390.62291000606,260.526667053838,-894.288070539013,109.73074233532,21063.0912524136
99.00047016143799,-1392139.51637994,-5285385.68331365,3317955.14445962,-109.613241317482,-398.806657922794,265.95480326075,-906.855248796754,104.608928985894,21549.4685860258
100.00047016143799,-1392250.21293918,-5285788.64929735,3318223.70944759,-111.806059624398,-407.391463834955,271.297095038754,-919.543252838776,99.4708006493747,22046.0377684347
101.00048041343689,-1392363.04375382,-5286200.34096552,3318497.69896144,-113.844331155533,-416.240702629114,276.766425287018,-932.205606912263,94.5183898694813,22553.0994700901
102.00048041343689,-1392477.92165272,-5286621.00568739,3318777.16982629,-115.997304860814,-425.344957227952,282.314554551298,-944.778449848294,89.923377212137,23070.8686802126
103.00049042701721,-1392595.0254291,-5287050.90353328,3319062.23072858,-118.204069098021,-434.711730750778,287.899451134849,-957.200734042563,85.5613927468657,23599.6557070641
104.00049042701721,-1392714.36981644,-5287490.27290859,3319352.90897654,-120.510818456641,-444.340221972502,293.575458154448,-969.374563938938,81.4865676332265,24139.6749994736
105.00050020217896,-1392836.11982466,-5287939.40055594,3319649.30091466,-123.029127466035,-454.169929154594,299.349927731862,-981.216913700104,77.5980148874223,24691.2495070212
106.00050020217896,-1392960.4313715,-5288398.40643932,3319951.5913109,-125.606660265021,-464.116302483203,305.353824318704,-992.804633471183,73.7556260023266,25254.6082228692
107.00050020217896,-1393087.30882949,-5288867.40286644,3320260.0475951,-128.144081638957,-474.173954367134,311.710508332056,-1004.30869962461,69.9878136496991,25829.9837123826
108.00051021575928,-1393216.68161608,-5289346.51584423,3320575.00457799,-130.656909429059,-484.397572742319,318.374081760971,-1015.96040762216,66.4114889763296,26417.6385125862
109.00051021575928,-1393348.61256473,-5289835.999051,3320896.66793172,-133.211544306686,-494.889578669643,325.055468788437,-1027.79968376365,63.0311101227999,27017.9027309762
110.0005202293396,-1393483.12842455,-5290336.09303153,3321225.01025455,-135.870087969514,-505.655930839241,331.810511374673,-1039.679372577,59.8878801111132,27630.9668105664
111.0005202293396,-1393620.30929957,-5290847.09521822,3321560.12132346,-138.560986981085,-516.700413944076,338.606864529008,-1051.51665260363,56.97976850532,28257.1406434998
112.00053024291992,-1393760.17088052,-5291369.24021765,3321902.20322037,-141.156627380502,-527.912961160549,345.704478438434,-1063.36415976845,54.3586469180882,28896.7264438886
