TIME[S],pos_X,pos_Y,pos_Z,vel_X,vel_Y,vel_Z,Latitude,Longitude,Altitude
0.0,-1387897.52489378,-5268929.40314374,3306577.78958198,-0.024384810456303,0.0581944954978505,0.013195331002003,-104.75716083466935,31.422849889959476,1126.76412755996
1.0,-1387897.51020182,-5268929.39813988,3306577.78415043,-0.0223816786699237,0.0506036995833791,0.00707304990651002,-104.7571606986742,31.42284988850608,1126.7539731329307
2.0000102519989014,-1387897.50834401,-5268929.38309468,3306577.77440117,-0.0170525802134444,0.0478699903232249,0.00842607871566857,-104.7571607200821,31.42284988410859,1126.7360713118687
3.0000102519989014,-1387897.51016397,-5268929.38717536,3306577.77573093,-0.0174964906986971,0.0368419076780181,0.00759637388190808,-104.7571607276584,31.42284987361019,1126.7405275348574
4.000020265579224,-1387897.5093597,-5268929.38959987,3306577.77946082,-0.012726560497543,0.0423543408892629,0.00575832963331068,-104.75716071298582,31.422849892252433,1126.7442979849875
5.000020265579224,-1387897.50950584,-5268929.38847967,3306577.77308233,-0.0169447472437881,0.0435821747433208,0.00600638520004749,-104.7571607174724,31.42284984808785,1126.7400799421594
6.000030279159546,-1387897.51522789,-5268929.39006231,3306577.78153702,-0.0175214590970926,0.0321398264682327,0.00793380621706077,-104.75716077141908,31.422849899099155,1126.7470375597477
7.000030279159546,-1387897.50845289,-5268929.36005391,3306577.76186992,-0.00824635684673498,0.0354733133532025,0.00225841401753024,-104.75716078290527,31.422849892297815,1126.7105486905202
8.000040292739868,-1387897.67777361,-5268929.91992316,3306578.10887869,-0.538925609685083,-1.74258458928667,1.06887125490596,-104.75716100503689,31.422849814496313,1127.3902673861012
9.000040292739868,-1387898.78133164,-5268933.51115302,3306580.24411656,-1.77422185864002,-5.52101648769062,3.28532484236715,-104.75716260748348,31.422848597229777,1131.7068132776767
10.00005030632019,-1387901.24058258,-5268940.82047184,3306584.48519073,-3.24057611447942,-9.08695063745388,5.20083572258333,-104.75716803645214,31.42284505780417,1140.4840655857697
11.00005030632019,-1387905.26918261,-5268951.68258016,3306590.57773322,-4.95467447074294,-12.6469637714027,7.03131805829633,-104.7571799072758,31.42283773451342,1153.4994471343234
12.000060319900513,-1387911.04344254,-5268966.14368523,3306598.4994168,-6.73743918422396,-16.2440619779653,8.86184446508393,-104.75719988896071,31.42282603439073,1170.8177721621469
13.000060319900513,-1387918.57380705,-5268984.23518102,3306608.27405253,-8.4946085434247,-19.8971770850297,10.7551392645396,-104.75722800351242,31.42280998548724,1192.4796320041642
14.000070333480835,-1387927.7957301,-5269005.99662402,3306619.94206607,-10.1588208066933,-23.5987938772352,12.7059699884621,-104.75726348848949,31.42278979641105,1218.5247155167162
15.000070333480835,-1387938.61871639,-5269031.497677,3306633.59410831,-11.7350734425248,-27.3605084277284,14.7358834868681,-104.75730523692401,31.422765956467234,1249.0380995832384
16.000080108642578,-1387950.9539414,-5269060.78440807,3306649.33307922,-13.163352263211,-31.1560907888263,16.8855284659199,-104.7573522220278,31.422739154484315,1284.0921400263906
17.000080108642578,-1387964.66946324,-5269093.86085782,3306667.36487275,-14.4343471011712,-34.9282034793443,19.2599396155083,-104.75740309114875,31.42271111449124,1323.7688348386437
18.000080108642578,-1387979.62093603,-5269130.65396222,3306687.90610936,-15.5752561269258,-38.6391574820946,21.871238165911,-104.75745657204934,31.42268400838996,1368.089450973086
19.0000901222229,-1387995.66609718,-5269171.12315689,3306711.13814801,-16.6275214186022,-42.3264606685403,24.6487248363438,-104.75751132665323,31.42265958646388,1417.0841425117105
20.000100135803223,-1388012.74088483,-5269215.30513649,3306737.20608801,-17.5511640506029,-46.0508748191664,27.5046490014994,-104.75756660513993,31.422638875080747,1470.8449114114046
21.000100135803223,-1388030.67296109,-5269263.19965685,3306766.19418457,-18.3304150836162,-49.799620786136,30.5032085393238,-104.75762065569701,31.42262272997127,1529.3780204178765
22.000100135803223,-1388049.27088287,-5269314.77144674,3306798.24875711,-18.9276395867749,-53.540808888467,33.6669669438175,-104.75767162613978,31.42261266646895,1592.6890315702185
23.000110149383545,-1388068.49163193,-5269370.15947561,3306833.60977241,-19.4161790299637,-57.2926865676696,36.9306200307024,-104.75771870683585,31.422609950595326,1661.0083754500374
24.000110149383545,-1388088.16223938,-5269429.28584606,3306872.21516413,-19.8544113986729,-61.1258865970906,40.1761035066639,-104.75776034775721,31.42261466578694,1734.2018134593964
25.000120162963867,-1388108.21002973,-5269492.29909063,3306914.0793915,-20.1570380301046,-65.0755013538343,43.4322977487255,-104.7577954122459,31.42262633488282,1812.3836534293368
26.000120162963867,-1388128.47653989,-5269559.33954871,3306959.22367157,-20.2664548978785,-69.1518783563477,46.6992130616459,-104.75782191342627,31.422644672672305,1895.6463174531236
27.00013017654419,-1388148.8027711,-5269630.46786443,3307007.66447193,-20.2995209211352,-73.2577104765308,50.0782053627866,-104.75783807255955,31.422669720281355,1984.0138712292537
28.00013017654419,-1388169.12199163,-5269705.63664468,3307059.59276053,-20.2955250742248,-77.2377245233426,53.6640752046548,-104.75784333849188,31.422703241971835,2077.5322613865137
29.00014019012451,-1388189.43518338,-5269784.73464842,3307115.19000401,-20.3189117778174,-81.1316389849367,57.4741717475365,-104.75783801959143,31.422747137895048,2176.2045147912577
30.00014019012451,-1388209.86069536,-5269867.74813192,3307174.62672381,-20.5030470615609,-85.0154161922491,61.3638919980519,-104.75782335638864,31.42280264014167,2280.133920514956
31.000150203704834,-1388230.57683054,-5269954.64582306,3307237.88826918,-20.9434596403386,-88.9381880847143,65.1896853348059,-104.75780124585302,31.422869563939464,2389.3257978223264
32.000150203704834,-1388251.86992937,-5270045.50281605,3307304.98054717,-21.6348276862435,-92.8843433172507,69.0185636321457,-104.75777439836826,31.42294726982111,2503.9074417231604
33.000160217285156,-1388273.93563113,-5270140.29894046,3307375.88527946,-22.5357650125524,-96.8407721431788,72.8118376746628,-104.75774485718495,31.423035473826197,2623.8952105818316
34.000160217285156,-1388297.03316332,-5270239.10220164,3307450.52343558,-23.7058185850149,-100.898276595401,76.5111783421062,-104.75771507573623,31.42313294770559,2749.360373703763
35.00017023086548,-1388321.41785779,-5270342.03891405,3307528.78268787,-25.0723707142357,-105.086562385732,80.0336331008162,-104.75768731152979,31.423237946758988,2880.4041091706604
36.00017023086548,-1388347.18337306,-5270449.21776105,3307610.50596311,-26.5336648146958,-109.405315364307,83.4596197188207,-104.75766222558201,31.423348655860234,3017.054573027417
37.00017023086548,-1388374.45002542,-5270560.75746087,3307695.6320441,-27.9959323614407,-113.809254112445,86.8624381230967,-104.75764072296485,31.423463919850825,3159.40397062432
38.0001802444458,-1388403.13325756,-5270676.71732732,3307784.17775176,-29.3834252529965,-118.253039781989,90.3018411280351,-104.75762178512892,31.423583699173264,3307.4916391149163
39.0001802444458,-1388433.202546,-5270797.15823041,3307876.18738526,-30.7564032968464,-122.765621339109,93.7652239162666,-104.75760493869029,31.42370809385164,3461.384271522984
40.00019025802612,-1388464.62402863,-5270922.14334801,3307971.64819945,-32.1182488943243,-127.358997813617,97.2178767963332,-104.75758967018105,31.423836758601865,3621.119998950511
41.00019025802612,-1388497.40426117,-5271051.75524137,3308070.54173677,-33.4469896101735,-132.045776193361,100.641359944303,-104.75757582510359,31.423969167740136,3786.7587545076385
42.000200271606445,-1388531.54852698,-5271186.12392357,3308172.81577709,-34.8217614346419,-136.86252587009,103.941862028374,-104.75756310898466,31.424104321816728,3958.3817479563877
43.000200271606445,-1388567.04502352,-5271325.39989477,3308278.30045697,-36.1536560383784,-141.874147361694,107.079852545465,-104.75755099886139,31.424240244003087,4136.022043936886
44.00021028518677,-1388603.81675757,-5271469.86198916,3308386.81264618,-37.4052013764814,-147.207829215363,109.937951467694,-104.75753796564729,31.424374350520875,4319.79751641769
45.00021028518677,-1388641.90381154,-5271619.73736746,3308498.01923215,-38.7858014264096,-152.747013267527,112.484785594354,-104.75752380866736,31.424502999079902,4509.730648393743
46.00022029876709,-1388681.51433621,-5271775.17850073,3308611.71708846,-40.4041048562787,-158.264490353604,115.001761547629,-104.75751023534555,31.424623685714685,4705.886591325514
47.00022029876709,-1388722.61877527,-5271935.9182598,3308728.01599145,-41.7070545329051,-163.205884573271,117.673264427137,-104.7574976604237,31.42473850414097,4908.095721241087
48.00023031234741,-1388764.7733202,-5272101.25347464,3308847.07430879,-42.5420850672128,-167.456804200295,120.527030563764,-104.75748345600267,31.42485239850003,5115.7638960927725
49.00023031234741,-1388807.64799105,-5272270.54825061,3308968.92751899,-43.1303322580166,-171.183275909537,123.155857158543,-104.7574659711705,31.424968925470203,5328.313162705861
50.000240087509155,-1388851.09598668,-5272443.37860231,3309093.15116281,-43.7404515986052,-174.504763944028,125.28424508348,-104.75744484943357,31.425086922645843,5545.140446045436
51.000240087509155,-1388895.10276661,-5272619.36111975,3309219.32560186,-44.2179774729742,-177.452149109757,127.116755348109,-104.75742096971902,31.425204922263127,5765.707414120436
52.00025010108948,-1388939.56469082,-5272797.97465019,3309347.23953692,-44.6792543141117,-179.790004065857,128.754073064129,-104.75739467416739,31.425323791082157,5989.451330365613
53.00025010108948,-1388984.55424338,-5272978.82277506,3309476.79643852,-45.3299383278981,-181.967303073666,130.425986745599,-104.75736776059158,31.42544450078885,6216.010508495383
54.0002601146698,-1389030.24949388,-5273161.91995028,3309607.95344415,-46.0170685983609,-184.301731417631,131.91053186926,-104.75734199968026,31.42556644273616,6445.413235966116
55.0002601146698,-1389076.54835989,-5273347.46307003,3309740.47567748,-46.4664917269535,-186.876954741427,133.204592644566,-104.75731582721612,31.42568703864499,6677.677333023399
56.0002601146698,-1389123.11858003,-5273535.637207,3309874.25590637,-46.6951743365127,-189.595451182712,134.548069448882,-104.7572853722654,31.425805021017513,6912.827384041622
57.00027012825012,-1389169.93857534,-5273726.52253828,3310009.56812597,-46.8850848243982,-192.15642433895,136.182745753989,-104.75725020153331,31.42592215792801,7151.067716801539
58.00027012825012,-1389217.05361372,-5273919.90494371,3310146.49892169,-47.3743870622715,-194.744570959414,137.786156435458,-104.75721134845405,31.426040033281115,7392.276631481014
59.000280141830444,-1389264.81275122,-5274115.98835178,3310284.97836018,-48.2183306816444,-197.484649314449,139.331516432473,-104.75717181374573,31.426156765420682,7636.661811021157
60.000280141830444,-1389313.44518646,-5274314.71604575,3310425.21355818,-49.029540227529,-199.997037004651,141.353403451298,-104.75713407758327,31.4262739296967,7884.33426303789
61.00029015541077,-1389362.85794194,-5274515.95865486,3310567.63100756,-49.7926149749502,-202.55277087028,143.641523795787,-104.7570975415202,31.426395502753472,8135.389400234446
62.00029015541077,-1389412.96049009,-5274719.83672844,3310712.2787746,-50.4334404714755,-205.386465191676,145.77779236082,-104.75706096339184,31.42652141413322,8389.932083631866
63.00030016899109,-1389463.68032253,-5274926.71288718,3310858.99494243,-50.9899805585599,-208.506418973069,147.788523350916,-104.75702263659079,31.426648858663583,8648.16135254968
64.00030016899109,-1389514.89599189,-5275136.8096754,3311007.68246792,-51.4555832474811,-211.790697456865,149.732585563813,-104.75698073248468,31.42677622481101,8910.183847050183
65.00031018257141,-1389566.53446017,-5275350.27088908,3311158.26233193,-51.8183815131416,-215.292343725008,151.502942938892,-104.75693412508213,31.426902339494887,9176.06114594452
66.00031018257141,-1389618.63063431,-5275567.30930884,3311310.65168116,-52.3951717956989,-218.892271385136,153.363435034781,-104.75688260033186,31.427025558011326,9445.933213466778
67.00031995773315,-1389671.47176886,-5275788.00187503,3311464.88058978,-53.328081937295,-222.600235459871,155.288344803078,-104.75682887034154,31.427145418672893,9719.941652783193
68.00031995773315,-1389725.31385909,-5276012.5220072,3311621.02635024,-54.3594477782676,-226.652821168107,157.089877645269,-104.75677507127303,31.42726142202728,9998.325502569787
69.00033020973206,-1389780.167658,-5276241.37441582,3311778.90922356,-55.2614056653216,-231.247342683172,158.694699825785,-104.75671996245954,31.42736988296408,10281.409843530506
70.00033020973206,-1389835.86429031,-5276474.98382995,3311938.35704604,-56.1573433746766,-236.028979084145,160.402280057065,-104.75666069340997,31.42746775316012,10569.41866481863
71.00034022331238,-1389892.5785993,-5276713.20070006,3312099.88831508,-57.2447872473872,-240.412906703857,162.915568654158,-104.7565994401197,31.42755948717954,10862.536916471086
72.00034022331238,-1389950.1882386,-5276955.55628366,3312264.44453766,-57.8644797100503,-244.437376093383,166.434926858717,-104.75653621439041,31.427654592909686,11160.842141109519
73.0003502368927,-1390008.1485228,-5277202.0788986,3312432.81119301,-57.9766730541512,-248.744645735331,170.461443398992,-104.7564654108096,31.427759626451156,11464.648890300654
74.0003502368927,-1390066.34175601,-5277452.90638741,3312605.11995532,-58.528772670115,-252.998797083576,174.234182742067,-104.756385467096,31.427875112595668,11774.11399142351
75.0003502368927,-1390125.43575137,-5277707.95168559,3312780.95821749,-59.7135345751559,-257.250031033977,177.467559883593,-104.7563033970919,31.42799747692407,12089.095612323843
76.00036025047302,-1390185.81314309,-5277967.3611413,3312959.89220124,-61.0077374613283,-261.65225503268,180.509721224584,-104.7562226942568,31.428122264613634,12409.571495495737
77.00036025047302,-1390247.3958599,-5278231.20863841,3313141.79431257,-62.0914451405373,-266.187183202492,183.383857136628,-104.7561423685589,31.428248252995942,12735.519108279608
78.00037026405334,-1390310.00971795,-5278499.7078333,3313326.45915937,-63.1508489201656,-270.941742371052,186.00461268331,-104.75606008089889,31.428373102700444,13066.969795331359
79.00037026405334,-1390373.93307875,-5278772.87094905,3313513.83388599,-64.8589509030846,-275.432809255354,188.949171640837,-104.75597862444255,31.42849601946925,13403.96657955926
80.00038027763367,-1390439.97059562,-5279050.29305397,3313704.42041957,-67.1624272473175,-279.491273393094,192.370787754734,-104.75590724844149,31.428621733497394,13746.611932152882
81.00038027763367,-1390508.30444809,-5279331.97661483,3313898.24997368,-69.5562616345385,-284.148239475191,195.229204104468,-104.75584779380827,31.428750254769145,14094.963757170364
82.00039029121399,-1390579.16141845,-5279618.69654536,3314094.49524777,-72.2744551582486,-289.443606494643,197.269999576428,-104.75580048896707,31.428871443026644,14449.279371021315
83.00039029121399,-1390652.96495343,-5279910.7102564,3314292.71145144,-75.3099283809635,-294.672025013704,199.367925756175,-104.75576894110007,31.428980210145745,14809.631263882853
84.00040030479431,-1390729.80549834,-5280207.84617328,3314493.33485323,-78.3870825727274,-299.662506646716,202.073174685445,-104.75575452401222,31.429080577720576,15176.124997426756
85.00040030479431,-1390809.65327626,-5280509.85739967,3314696.99691481,-81.3246753238128,-304.450840586384,205.450587971432,-104.75575759254616,31.42917855032704,15548.879641170613
86.00041007995605,-1390892.26288541,-5280816.62900859,3314904.23622676,-83.6546082401888,-309.371661391313,209.201358866872,-104.75577596097718,31.429279077181842,15928.027875054628
87.00041007995605,-1390976.76908583,-5281128.7080992,3315115.25292048,-85.2703639528461,-314.895438766303,213.004104830666,-104.75579938649228,31.42938224575855,16313.937450751662
88.00041007995605,-1391062.64143761,-5281446.57969919,3315329.92597108,-86.5253588025223,-320.985139989479,216.497910186922,-104.75582119096012,31.42948555997888,16706.830197282135
89.00042009353638,-1391149.99869418,-5281770.65047797,3315547.98721312,-88.2667403730658,-327.358039660251,219.70909631237,-104.75584149270009,31.429584974906273,17106.92764781881
90.0004301071167,-1391239.37871405,-5282101.09793314,3315769.41552719,-90.4911549160798,-333.73703647391,223.150529886938,-104.75586527345823,31.429678881334567,17514.482141044922
91.0004301071167,-1391331.07558654,-5282438.08748499,3315994.25770036,-92.8419161253545,-340.379007455983,226.678733468257,-104.75589507346949,31.42976653755619,17929.718481142074
92.0004301071167,-1391424.933348,-5282781.82938738,3316222.76833682,-94.8620763505929,-347.212459883549,230.589136305788,-104.7559287480003,31.42984913102182,18352.909022632055
93.00044012069702,-1391520.81329305,-5283132.34098767,3316455.48198599,-96.8603304337139,-353.91922456373,235.048316668062,-104.7559648431456,31.429930851047683,18784.31667611655
94.00044012069702,-1391618.76176594,-5283489.6193427,3316692.77964634,-98.9736027066459,-360.817346937822,239.74742452758,-104.75600383611116,31.430014578703403,19224.147759363055
95.00045013427734,-1391718.73366453,-5283853.91020023,3316934.86944101,-100.980154328448,-367.969388075019,244.580916200164,-104.75604461247137,31.43010084961855,19672.703774223104
96.00045013427734,-1391820.71099548,-5284225.47730626,3317181.92707746,-102.988458511253,-375.311694464688,249.729970739719,-104.7560862848847,31.430189836596952,20130.29006185662
97.00046014785767,-1391924.75748654,-5284604.44793925,3317434.22768217,-105.186947399331,-382.856857547607,255.045447145574,-104.75612915921224,31.430282996045346,20597.168963350356
98.00046014785767,-1392031.03676708,-5284991.07661675,3317691.97354901,-107.363319117672,-390.62291000606,260.526667053838,-104.75617421424525,31.43038052921012,21073.691542664543
99.00047016143799,-1392139.51637994,-5285385.68331365,3317955.14445962,-109.613241317482,-398.806657922794,265.95480326075,-104.75622026593096,31.430480868032138,21560.1042267289
100.00047016143799,-1392250.21293918,-5285788.64929735,3318223.70944759,-111.806059624398,-407.391463834955,271.297095038754,-104.75626646430939,31.430582026086498,22056.709075468592
101.00048041343689,-1392363.04375382,-5286200.34096552,3318497.69896144,-113.844331155533,-416.240702629114,276.766425287018,-104.75631099284824,31.43068267441843,22563.8063209299
102.00048041343689,-1392477.92165272,-5286621.00568739,3318777.16982629,-115.997304860814,-425.344957227952,282.314554551298,-104.75635230791858,31.43078223146068,23081.610760836862
103.00049042701721,-1392595.0254291,-5287050.90353328,3319062.23072858,-118.204069098021,-434.711730750778,287.899451134849,-104.7563915277659,31.43088013848171,23610.432519929484
104.00049042701721,-1392714.36981644,-5287490.27290859,3319352.90897654,-120.510818456641,-444.340221972502,293.575458154448,-104.75642816568156,31.43097550699332,24150.485753973946
105.00050020217896,-1392836.11982466,-5287939.40055594,3319649.30091466,-123.029127466035,-454.169929154594,299.349927731862,-104.75646312876918,31.431067579725298,24702.09316338878
106.00050020217896,-1392960.4313715,-5288398.40643932,3319951.5913109,-125.606660265021,-464.116302483203,305.353824318704,-104.75649767678435,31.431157043823145,25265.483969679102
107.00050020217896,-1393087.30882949,-5288867.40286644,3320260.0475951,-128.144081638957,-474.173954367134,311.710508332056,-104.75653155426065,31.431245435253537,25840.89124741871
108.00051021575928,-1393216.68161608,-5289346.51584423,3320575.00457799,-130.656909429059,-484.397572742319,318.374081760971,-104.75656371001655,31.43133483319762,26428.578222714365
109.00051021575928,-1393348.61256473,-5289835.999051,3320896.66793172,-133.211544306686,-494.889578669643,325.055468788437,-104.75659410396766,31.43142558911205,27028.875120784156
